   -1.620     1479
   -1.605     1479
   -1.590     1482
   -1.575     1433
   -1.560     1399
   -1.545     1384
   -1.530     1377
   -1.515     1415
   -1.500     1503
   -1.485     1552
   -1.470     1554
   -1.455     1623
   -1.440     1789
   -1.425     1969
   -1.410     2084
   -1.395     2100
   -1.380     1992
   -1.365     1852
   -1.350     1682
   -1.335     1473
   -1.320     1273
   -1.305     1041
   -1.290      802
   -1.275      619
   -1.260      495
   -1.245      410
   -1.230      371
   -1.215      371
   -1.200      368
   -1.185      346
   -1.170      325
   -1.155      311
   -1.140      310
   -1.125      319
   -1.110      317
   -1.095      308
   -1.080      300
   -1.065      299
   -1.050      306
   -1.035      314
   -1.020      319
   -1.005      340
   -0.990      345
   -0.975      333
   -0.960      315
   -0.945      304
   -0.930      295
   -0.915      289
   -0.900      293
   -0.885      298
   -0.870      305
   -0.855      309
   -0.840      322
   -0.825      333
   -0.810      318
   -0.795      305
   -0.780      299
   -0.765      300
   -0.750      301
   -0.735      297
   -0.720      288
   -0.705      284
   -0.690      289
   -0.675      296
   -0.660      310
   -0.645      318
   -0.630      317
   -0.615      309
   -0.600      302
   -0.585      295
   -0.570      294
   -0.555      295
   -0.540      293
   -0.525      295
   -0.510      297
   -0.495      305
   -0.480      324
   -0.465      325
   -0.450      311
   -0.435      303
   -0.420      318
   -0.405      320
   -0.390      314
   -0.375      314
   -0.360      322
   -0.345      310
   -0.330      310
   -0.315      306
   -0.300      311
   -0.285      302
   -0.270      296
   -0.255      304
   -0.240      303
   -0.225      301
   -0.210      295
   -0.195      285
   -0.180      280
   -0.165      285
   -0.150      294
   -0.135      293
   -0.120      296
   -0.105      302
   -0.090      302
   -0.075      295
   -0.060      285
   -0.045      277
   -0.030      284
   -0.015      292
   -0.000      286
    0.015      283
    0.030      278
    0.045      288
    0.060      295
    0.075      286
    0.090      281
    0.105      286
    0.120      293
    0.135      297
    0.150      305
    0.165      302
    0.180      297
    0.195      287
    0.210      294
    0.225      290
    0.240      286
    0.255      286
    0.270      287
    0.285      300
    0.300      305
    0.315      299
    0.330      295
    0.345      293
    0.360      294
    0.375      297
    0.390      303
    0.405      313
    0.420      326
    0.435      330
    0.450      333
    0.465      329
    0.480      316
    0.495      325
    0.510      342
    0.525      341
    0.540      348
    0.555      360
    0.570      381
    0.585      379
    0.600      369
    0.615      365
    0.630      359
    0.645      351
    0.660      355
    0.675      376
    0.690      394
    0.705      411
    0.720      407
    0.735      424
    0.750      467
    0.765      512
    0.780      573
    0.795      676
    0.810      807
    0.825      947
    0.840     1100
    0.855     1319
    0.870     1644
    0.885     2048
    0.900     2546
    0.915     3109
    0.930     3672
    0.945     4180
    0.960     4566
    0.975     4819
    0.990     4853
    1.005     4702
    1.020     4410
    1.035     3978
    1.050     3412
    1.065     2850
    1.080     2361
    1.095     2042
    1.110     1913
    1.125     1858
    1.140     1754
    1.155     1669
    1.170     1701
    1.185     1780
    1.200     1908
    1.215     2052
    1.230     2236
    1.245     2498
    1.260     2809
    1.275     3245
    1.290     3906
    1.305     4486
    1.320     5050
    1.335     5674
    1.350     6188
    1.365     6639
    1.380     7135
    1.395     7585
    1.410     7966
    1.425     8423
    1.440     8917
    1.455     9432
    1.470     9637
    1.485     9677
    1.500     9743
    1.515     9788
    1.530     9956
    1.545    10228
    1.560    10552
    1.575    10777
    1.590    10768
    1.605    10558
    1.620    10487
    1.635    10812
    1.650    11001
    1.665    10725
    1.680    10284
    1.695     9910
    1.710     9796
    1.725     9576
    1.740     9287
    1.755     9039
    1.770     8976
    1.785     9097
    1.800     9172
    1.815     9210
    1.830     9164
    1.845     8952
    1.860     8710
    1.875     8513
    1.890     8504
    1.905     8531
    1.920     8545
    1.935     8479
    1.950     8230
    1.965     7951
    1.980     7958
    1.995     8117
    2.010     8149
    2.025     8064
    2.040     7921
    2.055     7760
    2.070     7719
    2.085     7734
    2.100     7465
    2.115     7234
    2.130     7138
    2.145     7131
    2.160     7161
    2.175     7140
    2.190     7151
    2.205     6990
    2.220     6794
    2.235     6696
    2.250     6670
    2.265     6681
    2.280     6638
    2.295     6676
    2.310     6676
    2.325     6461
    2.340     6344
    2.355     6304
    2.370     6082
    2.385     5895
    2.400     5874
    2.415     5897
    2.430     5922
    2.445     5956
    2.460     6014
    2.475     6013
    2.490     6034
    2.505     5958
    2.520     5871
    2.535     5822
    2.550     5822
    2.565     5851
    2.580     5774
    2.595     5774
    2.610     5750
    2.625     5705
    2.640     5700
    2.655     5807
    2.670     5854
    2.685     5707
    2.700     5606
    2.715     5559
    2.730     5471
    2.745     5385
    2.760     5307
    2.775     5307
    2.790     5335
    2.805     5261
    2.820     5126
    2.835     5023
    2.850     5054
    2.865     5099
    2.880     5063
    2.895     5066
    2.910     5134
    2.925     5205
    2.940     5299
    2.955     5165
    2.970     5025
    2.985     4984
    3.000     4931
    3.015     4870
    3.030     4832
    3.045     4922
    3.060     5093
    3.075     5274
    3.090     5280
    3.105     5125
    3.120     4936
    3.135     4952
    3.150     5039
    3.165     5021
    3.180     4940
    3.195     4810
    3.210     4710
    3.225     4702
    3.240     4755
    3.255     4811
    3.270     4801
    3.285     4797
    3.300     4955
    3.315     4902
    3.330     4675
    3.345     4449
    3.360     4406
    3.375     4422
    3.390     4382
    3.405     4404
    3.420     4380
    3.435     4399
    3.450     4469
    3.465     4530
    3.480     4596
    3.495     4583
    3.510     4392
    3.525     4298
    3.540     4371
    3.555     4540
    3.570     4548
    3.585     4492
    3.600     4371
    3.615     4319
    3.630     4461
    3.645     4538
    3.660     4487
    3.675     4529
    3.690     4624
    3.705     4718
    3.720     4698
    3.735     4566
    3.750     4388
    3.765     4409
    3.780     4507
    3.795     4448
    3.810     4399
    3.825     4362
    3.840     4389
    3.855     4426
    3.870     4467
    3.885     4560
    3.900     4634
    3.915     4599
    3.930     4535
    3.945     4567
    3.960     4622
    3.975     4664
    3.990     4603
    4.005     4539
    4.020     4485
    4.035     4408
    4.050     4260
    4.065     4200
    4.080     4317
    4.095     4384
    4.110     4284
    4.125     4169
    4.140     4204
    4.155     4421
    4.170     4647
    4.185     4682
    4.200     4590
    4.215     4492
    4.230     4421
    4.245     4393
    4.260     4380
    4.275     4318
    4.290     4258
    4.305     4196
    4.320     4264
    4.335     4452
    4.350     4601
    4.365     4611
    4.380     4442
    4.395     4292
    4.410     4284
    4.425     4368
    4.440     4341
    4.455     4329
    4.470     4325
    4.485     4373
    4.500     4452
    4.515     4482
    4.530     4444
    4.545     4409
    4.560     4325
    4.575     4187
    4.590     4147
    4.605     4114
    4.620     4146
    4.635     4309
    4.650     4396
    4.665     4386
    4.680     4309
    4.695     4275
    4.710     4349
    4.725     4358
    4.740     4378
    4.755     4426
    4.770     4362
    4.785     4208
    4.800     4165
    4.815     4256
    4.830     4325
    4.845     4212
    4.860     4084
    4.875     4186
    4.890     4359
    4.905     4371
    4.920     4272
    4.935     4131
    4.950     4125
    4.965     4144
    4.980     4209
    4.995     4177
    5.010     4146
    5.025     4175
    5.040     4219
    5.055     4250
    5.070     4195
    5.085     4152
    5.100     4190
    5.115     4315
    5.130     4504
    5.145     4573
    5.160     4536
    5.175     4435
    5.190     4355
    5.205     4226
    5.220     4094
    5.235     4015
    5.250     4001
    5.265     4027
    5.280     4067
    5.295     4185
    5.310     4376
    5.325     4444
    5.340     4393
    5.355     4343
    5.370     4310
    5.385     4320
    5.400     4146
    5.415     4079
    5.430     4129
    5.445     4221
    5.460     4297
    5.475     4242
    5.490     4082
    5.505     3967
    5.520     3965
    5.535     4043
    5.550     4147
    5.565     4203
    5.580     4203
    5.595     4127
    5.610     4001
    5.625     3920
    5.640     3946
    5.655     3938
    5.670     3958
    5.685     4061
    5.700     4054
    5.715     4014
    5.730     3952
    5.745     4006
    5.760     4144
    5.775     4268
    5.790     4304
    5.805     4346
    5.820     4412
    5.835     4324
    5.850     4301
    5.865     4258
    5.880     4087
    5.895     4070
    5.910     4124
    5.925     4194
    5.940     4155
    5.955     3963
    5.970     4081
    5.985     4334
    6.000     4417
    6.015     4322
    6.030     4256
    6.045     4382
    6.060     4462
    6.075     4370
    6.090     4285
    6.105     4254
    6.120     4146
    6.135     4138
    6.150     4179
    6.165     4161
    6.180     4135
    6.195     4166
    6.210     4187
    6.225     4131
    6.240     4094
    6.255     3979
    6.270     3901
    6.285     3867
    6.300     3967
    6.315     4112
    6.330     4085
    6.345     4153
    6.360     4238
    6.375     4177
    6.390     4039
    6.405     3978
    6.420     3941
    6.435     3922
    6.450     3984
    6.465     4169
    6.480     4311
    6.495     4422
    6.510     4431
    6.525     4349
    6.540     4208
    6.555     4069
    6.570     3969
    6.585     3932
    6.600     3908
    6.615     3973
    6.630     4135
    6.645     4226
    6.660     4229
    6.675     4226
    6.690     4229
    6.705     4215
    6.720     4207
    6.735     4210
    6.750     4251
    6.765     4287
    6.780     4194
    6.795     4061
    6.810     4058
    6.825     4115
    6.840     4284
    6.855     4436
    6.870     4466
    6.885     4431
    6.900     4322
    6.915     4160
    6.930     4096
    6.945     4052
    6.960     4071
    6.975     4185
    6.990     4161
    7.005     4098
    7.020     4166
    7.035     4288
    7.050     4295
    7.065     4304
    7.080     4269
    7.095     4316
    7.110     4435
    7.125     4541
    7.140     4590
    7.155     4555
    7.170     4491
    7.185     4547
    7.200     4621
    7.215     4588
    7.230     4548
    7.245     4607
    7.260     4815
    7.275     4964
    7.290     5070
    7.305     5179
    7.320     5356
    7.335     5507
    7.350     5672
    7.365     5703
    7.380     5599
    7.395     5667
    7.410     5821
    7.425     5965
    7.440     6150
    7.455     6341
    7.470     6765
    7.485     7298
    7.500     7723
    7.515     8007
    7.530     8135
    7.545     8447
    7.560     9123
    7.575     9786
    7.590    10247
    7.605    10761
    7.620    11389
    7.635    12101
    7.650    12902
    7.665    13398
    7.680    13692
    7.695    13875
    7.710    13741
    7.725    13259
    7.740    12439
    7.755    11197
    7.770     9689
    7.785     8159
    7.800     6914
    7.815     6086
    7.830     5560
    7.845     5191
    7.860     4861
    7.875     4528
    7.890     4274
    7.905     4185
    7.920     4159
    7.935     4137
    7.950     4124
    7.965     4149
    7.980     4252
    7.995     4279
    8.010     4200
    8.025     4037
    8.040     3962
    8.055     3989
    8.070     3985
    8.085     3952
    8.100     4038
    8.115     4181
    8.130     4229
    8.145     4271
    8.160     4258
    8.175     4123
    8.190     3989
    8.205     3986
    8.220     3949
    8.235     3897
    8.250     3824
    8.265     3850
    8.280     3900
    8.295     4049
    8.310     4212
    8.325     4270
    8.340     4229
    8.355     4154
    8.370     4148
    8.385     4200
    8.400     4185
    8.415     4188
    8.430     4216
    8.445     4261
    8.460     4348
    8.475     4342
    8.490     4255
    8.505     4140
    8.520     4191
    8.535     4338
    8.550     4379
    8.565     4435
    8.580     4514
    8.595     4581
    8.610     4616
    8.625     4602
    8.640     4677
    8.655     4799
    8.670     4882
    8.685     5065
    8.700     5241
    8.715     5252
    8.730     5406
    8.745     5781
    8.760     6044
    8.775     6220
    8.790     6357
    8.805     6594
    8.820     7060
    8.835     7622
    8.850     8046
    8.865     8360
    8.880     8727
    8.895     9020
    8.910     9371
    8.925     9801
    8.940    10435
    8.955    11234
    8.970    11989
    8.985    12613
    9.000    12934
    9.015    13096
    9.030    13017
    9.045    12718
    9.060    11912
    9.075    10794
    9.090     9468
    9.105     8037
    9.120     6805
    9.135     6005
    9.150     5600
    9.165     5478
    9.180     5386
    9.195     5305
    9.210     5344
    9.225     5322
    9.240     5229
    9.255     5152
    9.270     5052
    9.285     4813
    9.300     4563
    9.315     4445
    9.330     4383
    9.345     4350
    9.360     4297
    9.375     4172
    9.390     4036
    9.405     3998
    9.420     4039
    9.435     3974
    9.450     3951
    9.465     3892
    9.480     3936
    9.495     4003
    9.510     4017
    9.525     3995
    9.540     3927
    9.555     3846
    9.570     3818
    9.585     3881
    9.600     3971
    9.615     4030
    9.630     4024
    9.645     4033
    9.660     4037
    9.675     4029
    9.690     3976
    9.705     3887
    9.720     3881
    9.735     3970
    9.750     4030
    9.765     4014
    9.780     4028
    9.795     4071
    9.810     4113
    9.825     4102
    9.840     3970
    9.855     3807
    9.870     3742
    9.885     3859
    9.900     4079
    9.915     4265
    9.930     4411
    9.945     4463
    9.960     4403
    9.975     4267
    9.990     4144
   10.005     4106
   10.020     4177
   10.035     4303
   10.050     4396
   10.065     4450
   10.080     4470
   10.095     4495
   10.110     4500
   10.125     4468
   10.140     4367
   10.155     4190
   10.170     3976
   10.185     3849
   10.200     3805
   10.215     3775
   10.230     3836
   10.245     3982
   10.260     4035
   10.275     3951
   10.290     3883
   10.305     3901
   10.320     3981
   10.335     3975
   10.350     3933
   10.365     3987
   10.380     4009
   10.395     3950
   10.410     3832
   10.425     3812
   10.440     3848
   10.455     3847
   10.470     3852
   10.485     3801
   10.500     3768
   10.515     3766
   10.530     3794
   10.545     3906
   10.560     3911
   10.575     3794
   10.590     3759
   10.605     3805
   10.620     3848
   10.635     3858
   10.650     3879
   10.665     3913
   10.680     3938
   10.695     3915
   10.710     3831
   10.725     3721
   10.740     3708
   10.755     3745
   10.770     3862
   10.785     4013
   10.800     4100
   10.815     4076
   10.830     3967
   10.845     3938
   10.860     4026
   10.875     4141
   10.890     4192
   10.905     4132
   10.920     3998
   10.935     3874
   10.950     3885
   10.965     3957
   10.980     3985
   10.995     4028
   11.010     4021
   11.025     3955
   11.040     3940
   11.055     3963
   11.070     3957
   11.085     3892
   11.100     3816
   11.115     3818
   11.130     3969
   11.145     4145
   11.160     4160
   11.175     4023
   11.190     3818
   11.205     3705
   11.220     3776
   11.235     3910
   11.250     3965
   11.265     3955
   11.280     3955
   11.295     3984
   11.310     3945
   11.325     3945
   11.340     4036
   11.355     4059
   11.370     4044
   11.385     4052
   11.400     4081
   11.415     4111
   11.430     4095
   11.445     3988
   11.460     4010
   11.475     4194
   11.490     4424
   11.505     4549
   11.520     4589
   11.535     4726
   11.550     4910
   11.565     4922
   11.580     4994
   11.595     5124
   11.610     5214
   11.625     5248
   11.640     5209
   11.655     5109
   11.670     4946
   11.685     4750
   11.700     4519
   11.715     4309
   11.730     4175
   11.745     4034
   11.760     3958
   11.775     4019
   11.790     4126
   11.805     4131
   11.820     4115
   11.835     4114
   11.850     4103
   11.865     4084
   11.880     4085
   11.895     4062
   11.910     4046
   11.925     4084
   11.940     4149
   11.955     4199
   11.970     4166
   11.985     4130
   12.000     4233
   12.015     4441
   12.030     4644
   12.045     4719
   12.060     4662
   12.075     4528
   12.090     4364
   12.105     4273
   12.120     4280
   12.135     4279
   12.150     4239
   12.165     4165
   12.180     4094
   12.195     4054
   12.210     4064
   12.225     4084
   12.240     4065
   12.255     4046
   12.270     3995
   12.285     3921
   12.300     3877
   12.315     3816
   12.330     3711
   12.345     3629
   12.360     3663
   12.375     3778
   12.390     3887
   12.405     3972
   12.420     4102
   12.435     4114
   12.450     3943
   12.465     3697
   12.480     3629
   12.495     3704
   12.510     3902
   12.525     3994
   12.540     3939
   12.555     3825
   12.570     3776
   12.585     3873
   12.600     3968
   12.615     3972
   12.630     3944
   12.645     3941
   12.660     3992
   12.675     3972
   12.690     3942
   12.705     3899
   12.720     3875
   12.735     3974
   12.750     4099
   12.765     4230
   12.780     4277
   12.795     4305
   12.810     4386
   12.825     4598
   12.840     4750
   12.855     4827
   12.870     4919
   12.885     4965
   12.900     5058
   12.915     5265
   12.930     5497
   12.945     5702
   12.960     5934
   12.975     6205
   12.990     6381
   13.005     6618
   13.020     6917
   13.035     7095
   13.050     7199
   13.065     7321
   13.080     7407
   13.095     7425
   13.110     7404
   13.125     7415
   13.140     7428
   13.155     7340
   13.170     7099
   13.185     6701
   13.200     6311
   13.215     5961
   13.230     5598
   13.245     5270
   13.260     5002
   13.275     4732
   13.290     4456
   13.305     4242
   13.320     4171
   13.335     4197
   13.350     4195
   13.365     4119
   13.380     4011
   13.395     3957
   13.410     4012
   13.425     4174
   13.440     4278
   13.455     4270
   13.470     4203
   13.485     4147
   13.500     4121
   13.515     4116
   13.530     4129
   13.545     4130
   13.560     4111
   13.575     4049
   13.590     3927
   13.605     3833
   13.620     3769
   13.635     3751
   13.650     3809
   13.665     3940
   13.680     3967
   13.695     3946
   13.710     3972
   13.725     4021
   13.740     4033
   13.755     3973
   13.770     3948
   13.785     3954
   13.800     4010
   13.815     4013
   13.830     4039
   13.845     4046
   13.860     3974
   13.875     3900
   13.890     3861
   13.905     3827
   13.920     3851
   13.935     3891
   13.950     3938
   13.965     3972
   13.980     3952
   13.995     3921
   14.010     3833
   14.025     3839
   14.040     3958
   14.055     4098
   14.070     4184
   14.085     4167
   14.100     4025
   14.115     3904
   14.130     3940
   14.145     4008
   14.160     4016
   14.175     3962
   14.190     3904
   14.205     3970
   14.220     4118
   14.235     4283
   14.250     4354
   14.265     4270
   14.280     4196
   14.295     4169
   14.310     4257
   14.325     4404
   14.340     4525
   14.355     4587
   14.370     4629
   14.385     4595
   14.400     4538
   14.415     4473
   14.430     4331
   14.445     4114
   14.460     3982
   14.475     4011
   14.490     4120
   14.505     4127
   14.520     4039
   14.535     3945
   14.550     3890
   14.565     3865
   14.580     3808
   14.595     3747
   14.610     3737
   14.625     3748
   14.640     3750
   14.655     3741
   14.670     3771
   14.685     3850
   14.700     3945
   14.715     4052
   14.730     4122
   14.745     4097
   14.760     4117
   14.775     4272
   14.790     4419
   14.805     4459
   14.820     4409
   14.835     4382
   14.850     4520
   14.865     4723
   14.880     4855
   14.895     4974
   14.910     5099
   14.925     5201
   14.940     5287
   14.955     5363
   14.970     5460
   14.985     5548
   15.000     5682
   15.015     5862
   15.030     5900
   15.045     5687
   15.060     5391
   15.075     5128
   15.090     4971
   15.105     4875
   15.120     4800
   15.135     4762
   15.150     4687
   15.165     4513
   15.180     4290
   15.195     4133
   15.210     4078
   15.225     4099
   15.240     4105
   15.255     4133
   15.270     4147
   15.285     4067
   15.300     3927
   15.315     3888
   15.330     3924
   15.345     3974
   15.360     3983
   15.375     4051
   15.390     4062
   15.405     4024
   15.420     3988
   15.435     3980
   15.450     3954
   15.465     3978
   15.480     4025
   15.495     4163
   15.510     4211
   15.525     4071
   15.540     3844
   15.555     3776
   15.570     3794
   15.585     3782
   15.600     3883
   15.615     4028
   15.630     4010
   15.645     3987
   15.660     3888
   15.675     3854
   15.690     3914
   15.705     3945
   15.720     3936
   15.735     3925
   15.750     3931
   15.765     3997
   15.780     4075
   15.795     4189
   15.810     4304
   15.825     4291
   15.840     4211
   15.855     4175
   15.870     4059
   15.885     3935
   15.900     3814
   15.915     3802
   15.930     3858
   15.945     3887
   15.960     3901
   15.975     3843
   15.990     3782
   16.005     3754
   16.020     3736
   16.035     3754
   16.050     3768
   16.065     3758
   16.080     3743
   16.095     3753
   16.110     3819
   16.125     3846
   16.140     3895
   16.155     3930
   16.170     3957
   16.185     3970
   16.200     3959
   16.215     3923
   16.230     3861
   16.245     3787
   16.260     3735
   16.275     3777
   16.290     3877
   16.305     3948
   16.320     3928
   16.335     3907
   16.350     4000
   16.365     4035
   16.380     3897
   16.395     3760
   16.410     3750
   16.425     3744
   16.440     3713
   16.455     3717
   16.470     3753
   16.485     3772
   16.500     3794
   16.515     3840
   16.530     3943
   16.545     4074
   16.560     4159
   16.575     4189
   16.590     4158
   16.605     4104
   16.620     4087
   16.635     4087
   16.650     4066
   16.665     4052
   16.680     4089
   16.695     4174
   16.710     4260
   16.725     4366
   16.740     4462
   16.755     4514
   16.770     4597
   16.785     4745
   16.800     4966
   16.815     5287
   16.830     5700
   16.845     6281
   16.860     7084
   16.875     8026
   16.890     9038
   16.905    10149
   16.920    11372
   16.935    12626
   16.950    13715
   16.965    14574
   16.980    15159
   16.995    15447
   17.010    15354
   17.025    14898
   17.040    14114
   17.055    12950
   17.070    11628
   17.085    10332
   17.100     9043
   17.115     7874
   17.130     6916
   17.145     6160
   17.160     5423
   17.175     4799
   17.190     4454
   17.205     4259
   17.220     4127
   17.235     4089
   17.250     4137
   17.265     4186
   17.280     4137
   17.295     4018
   17.310     3939
   17.325     3952
   17.340     3991
   17.355     4037
   17.370     4056
   17.385     3956
   17.400     3838
   17.415     3860
   17.430     3999
   17.445     4112
   17.460     4148
   17.475     4148
   17.490     4139
   17.505     4114
   17.520     4082
   17.535     4126
   17.550     4278
   17.565     4396
   17.580     4383
   17.595     4292
   17.610     4178
   17.625     4170
   17.640     4238
   17.655     4371
   17.670     4464
   17.685     4411
   17.700     4272
   17.715     4168
   17.730     4124
   17.745     4117
   17.760     4093
   17.775     4052
   17.790     3981
   17.805     3912
   17.820     3900
   17.835     4015
   17.850     4139
   17.865     4267
   17.880     4417
   17.895     4489
   17.910     4460
   17.925     4431
   17.940     4482
   17.955     4525
   17.970     4576
   17.985     4575
   18.000     4611
   18.015     4732
   18.030     4802
   18.045     4701
   18.060     4618
   18.075     4580
   18.090     4616
   18.105     4737
   18.120     4775
   18.135     4569
   18.150     4299
   18.165     4205
   18.180     4240
   18.195     4325
   18.210     4444
   18.225     4475
   18.240     4346
   18.255     4199
   18.270     4166
   18.285     4241
   18.300     4375
   18.315     4475
   18.330     4522
   18.345     4554
   18.360     4647
   18.375     4687
   18.390     4722
   18.405     4823
   18.420     4974
   18.435     5072
   18.450     5156
   18.465     5137
   18.480     4944
   18.495     4741
   18.510     4597
   18.525     4498
   18.540     4394
   18.555     4270
   18.570     4314
   18.585     4309
   18.600     4179
   18.615     4060
   18.630     3988
   18.645     3923
   18.660     3916
   18.675     3860
   18.690     3823
   18.705     3928
   18.720     4005
   18.735     3984
   18.750     4008
   18.765     4126
   18.780     4186
   18.795     4162
   18.810     4123
   18.825     4028
   18.840     3927
   18.855     3834
   18.870     3759
   18.885     3889
   18.900     4055
   18.915     4071
   18.930     4021
   18.945     3994
   18.960     3970
   18.975     3976
   18.990     3907
   19.005     3804
   19.020     3772
   19.035     3754
   19.050     3773
   19.065     3902
   19.080     3979
   19.095     3928
   19.110     3944
   19.125     4090
   19.140     4220
   19.155     4233
   19.170     4264
   19.185     4297
   19.200     4383
   19.215     4430
   19.230     4564
   19.245     4701
   19.260     4719
   19.275     4604
   19.290     4386
   19.305     4214
   19.320     4083
   19.335     3918
   19.350     3888
   19.365     4070
   19.380     4217
   19.395     4228
   19.410     4176
   19.425     4070
   19.440     3958
   19.455     3949
   19.470     4043
   19.485     4171
   19.500     4162
   19.515     4131
   19.530     4068
   19.545     4095
   19.560     4121
   19.575     4100
   19.590     4125
   19.605     4170
   19.620     4157
   19.635     4063
   19.650     3993
   19.665     3957
   19.680     4001
   19.695     3937
   19.710     3819
   19.725     3802
   19.740     3837
   19.755     3823
   19.770     3876
   19.785     4032
   19.800     4226
   19.815     4347
   19.830     4315
   19.845     4258
   19.860     4155
   19.875     4131
   19.890     4174
   19.905     4218
   19.920     4306
   19.935     4359
   19.950     4333
   19.965     4257
   19.980     4222
   19.995     4207
   20.010     4329
   20.025     4521
   20.040     4539
   20.055     4512
   20.070     4503
   20.085     4502
   20.100     4418
   20.115     4350
   20.130     4342
   20.145     4482
   20.160     4615
   20.175     4615
   20.190     4599
   20.205     4596
   20.220     4566
   20.235     4502
   20.250     4370
   20.265     4248
   20.280     4310
   20.295     4414
   20.310     4428
   20.325     4446
   20.340     4383
   20.355     4209
   20.370     4128
   20.385     4183
   20.400     4238
   20.415     4256
   20.430     4234
   20.445     4181
   20.460     4195
   20.475     4218
   20.490     4227
   20.505     4327
   20.520     4360
   20.535     4303
   20.550     4266
   20.565     4316
   20.580     4419
   20.595     4426
   20.610     4417
   20.625     4383
   20.640     4388
   20.655     4294
   20.670     4188
   20.685     4091
   20.700     4106
   20.715     4208
   20.730     4332
   20.745     4357
   20.760     4307
   20.775     4182
   20.790     4202
   20.805     4440
   20.820     4696
   20.835     4888
   20.850     4982
   20.865     4970
   20.880     5005
   20.895     5185
   20.910     5517
   20.925     5979
   20.940     6473
   20.955     6961
   20.970     7512
   20.985     8232
   21.000     8895
   21.015     9647
   21.030    10587
   21.045    11500
   21.060    12169
   21.075    12338
   21.090    12026
   21.105    11198
   21.120    10076
   21.135     8797
   21.150     7640
   21.165     6679
   21.180     5944
   21.195     5308
   21.210     4918
   21.225     4730
   21.240     4572
   21.255     4501
   21.270     4565
   21.285     4695
   21.300     4809
   21.315     4919
   21.330     4963
   21.345     5075
   21.360     5407
   21.375     5754
   21.390     6181
   21.405     6778
   21.420     7178
   21.435     7648
   21.450     8289
   21.465     8867
   21.480     9288
   21.495     9639
   21.510     9673
   21.525     9325
   21.540     8662
   21.555     7789
   21.570     6936
   21.585     6308
   21.600     5817
   21.615     5315
   21.630     4975
   21.645     4837
   21.660     4749
   21.675     4724
   21.690     4774
   21.705     4709
   21.720     4555
   21.735     4489
   21.750     4460
   21.765     4444
   21.780     4564
   21.795     4656
   21.810     4651
   21.825     4641
   21.840     4578
   21.855     4518
   21.870     4472
   21.885     4420
   21.900     4441
   21.915     4386
   21.930     4352
   21.945     4389
   21.960     4414
   21.975     4453
   21.990     4415
   22.005     4374
   22.020     4425
   22.035     4519
   22.050     4600
   22.065     4632
   22.080     4588
   22.095     4488
   22.110     4398
   22.125     4380
   22.140     4525
   22.155     4670
   22.170     4697
   22.185     4726
   22.200     4788
   22.215     4873
   22.230     4934
   22.245     5084
   22.260     5317
   22.275     5515
   22.290     5596
   22.305     5773
   22.320     5970
   22.335     5971
   22.350     5924
   22.365     5934
   22.380     5960
   22.395     5805
   22.410     5619
   22.425     5620
   22.440     5618
   22.455     5614
   22.470     5520
   22.485     5350
   22.500     5274
   22.515     5324
   22.530     5443
   22.545     5502
   22.560     5426
   22.575     5365
   22.590     5448
   22.605     5680
   22.620     6067
   22.635     6504
   22.650     6962
   22.665     7485
   22.680     8182
   22.695     8964
   22.710     9723
   22.725    10365
   22.740    10995
   22.755    11571
   22.770    11627
   22.785    11049
   22.800    10175
   22.815     9174
   22.830     8241
   22.845     7531
   22.860     6951
   22.875     6418
   22.890     5977
   22.905     5666
   22.920     5444
   22.935     5312
   22.950     5273
   22.965     5229
   22.980     5179
   22.995     5107
   23.010     4930
   23.025     4719
   23.040     4676
   23.055     4839
   23.070     4916
   23.085     4895
   23.100     4858
   23.115     4847
   23.130     4914
   23.145     4992
   23.160     5098
   23.175     5199
   23.190     5212
   23.205     5196
   23.220     5272
   23.235     5457
   23.250     5608
   23.265     5709
   23.280     5894
   23.295     6064
   23.310     6123
   23.325     6046
   23.340     5946
   23.355     5916
   23.370     5906
   23.385     5872
   23.400     5755
   23.415     5575
   23.430     5412
   23.445     5297
   23.460     5263
   23.475     5332
   23.490     5457
   23.505     5476
   23.520     5367
   23.535     5283
   23.550     5195
   23.565     5139
   23.580     5206
   23.595     5293
   23.610     5245
   23.625     5086
   23.640     4911
   23.655     4852
   23.670     4912
   23.685     5004
   23.700     5151
   23.715     5231
   23.730     5159
   23.745     5047
   23.760     4956
   23.775     4859
   23.790     4726
   23.805     4683
   23.820     4746
   23.835     4852
   23.850     4864
   23.865     4790
   23.880     4735
   23.895     4701
   23.910     4697
   23.925     4809
   23.940     4980
   23.955     5067
   23.970     5063
   23.985     5076
   24.000     5211
   24.015     5345
   24.030     5385
   24.045     5444
   24.060     5514
   24.075     5567
   24.090     5672
   24.105     5789
   24.120     5881
   24.135     5916
   24.150     5944
   24.165     6083
   24.180     6298
   24.195     6555
   24.210     6879
   24.225     7165
   24.240     7341
   24.255     7457
   24.270     7520
   24.285     7481
   24.300     7410
   24.315     7338
   24.330     7259
   24.345     7119
   24.360     6882
   24.375     6530
   24.390     6078
   24.405     5701
   24.420     5479
   24.435     5337
   24.450     5298
   24.465     5319
   24.480     5291
   24.495     5311
   24.510     5501
   24.525     5634
   24.540     5576
   24.555     5481
   24.570     5458
   24.585     5560
   24.600     5762
   24.615     5914
   24.630     5952
   24.645     5896
   24.660     5785
   24.675     5701
   24.690     5728
   24.705     5885
   24.720     6084
   24.735     6179
   24.750     6071
   24.765     5843
   24.780     5636
   24.795     5483
   24.810     5310
   24.825     5130
   24.840     5050
   24.855     5055
   24.870     4990
   24.885     4802
   24.900     4658
   24.915     4633
   24.930     4614
   24.945     4558
   24.960     4520
   24.975     4490
   24.990     4492
   25.005     4518
   25.020     4544
   25.035     4578
   25.050     4588
   25.065     4566
   25.080     4544
   25.095     4576
   25.110     4655
   25.125     4694
   25.140     4676
   25.155     4628
   25.170     4561
   25.185     4472
   25.200     4364
   25.215     4304
   25.230     4339
   25.245     4412
   25.260     4471
   25.275     4516
   25.290     4507
   25.305     4483
   25.320     4515
   25.335     4576
   25.350     4667
   25.365     4720
   25.380     4704
   25.395     4660
   25.410     4614
   25.425     4619
   25.440     4655
   25.455     4639
   25.470     4615
   25.485     4577
   25.500     4534
   25.515     4555
   25.530     4655
   25.545     4732
   25.560     4722
   25.575     4664
   25.590     4590
   25.605     4604
   25.620     4743
   25.635     4862
   25.650     4950
   25.665     5035
   25.680     5103
   25.695     5131
   25.710     5095
   25.725     5084
   25.740     5154
   25.755     5323
   25.770     5446
   25.785     5507
   25.800     5598
   25.815     5716
   25.830     5794
   25.845     5788
   25.860     5702
   25.875     5648
   25.890     5644
   25.905     5674
   25.920     5719
   25.935     5801
   25.950     5780
   25.965     5609
   25.980     5414
   25.995     5256
   26.010     5185
   26.025     5258
   26.040     5358
   26.055     5313
   26.070     5110
   26.085     4940
   26.100     4865
   26.115     4774
   26.130     4668
   26.145     4609
   26.160     4586
   26.175     4553
   26.190     4548
   26.205     4594
   26.220     4613
   26.235     4644
   26.250     4738
   26.265     4892
   26.280     4977
   26.295     4998
   26.310     4974
   26.325     4876
   26.340     4800
   26.355     4823
   26.370     4869
   26.385     4838
   26.400     4738
   26.415     4656
   26.430     4677
   26.445     4754
   26.460     4913
   26.475     5107
   26.490     5195
   26.505     5150
   26.520     5105
   26.535     5037
   26.550     4992
   26.565     5030
   26.580     5130
   26.595     5162
   26.610     5094
   26.625     5005
   26.640     5004
   26.655     5033
   26.670     5008
   26.685     4910
   26.700     4786
   26.715     4669
   26.730     4563
   26.745     4534
   26.760     4550
   26.775     4619
   26.790     4674
   26.805     4666
   26.820     4636
   26.835     4722
   26.850     4843
   26.865     4912
   26.880     4900
   26.895     4921
   26.910     4960
   26.925     4934
   26.940     4914
   26.955     5000
   26.970     5148
   26.985     5150
   27.000     5113
   27.015     5124
   27.030     5110
   27.045     5054
   27.060     5054
   27.075     5034
   27.090     4990
   27.105     5044
   27.120     5157
   27.135     5313
   27.150     5655
   27.165     6044
   27.180     6350
   27.195     6629
   27.210     6939
   27.225     7223
   27.240     7399
   27.255     7560
   27.270     7564
   27.285     7359
   27.300     7157
   27.315     6955
   27.330     6632
   27.345     6172
   27.360     5804
   27.375     5521
   27.390     5302
   27.405     5246
   27.420     5349
   27.435     5446
   27.450     5440
   27.465     5338
   27.480     5232
   27.495     5122
   27.510     5174
   27.525     5276
   27.540     5235
   27.555     5159
   27.570     5150
   27.585     5160
   27.600     5122
   27.615     5097
   27.630     5065
   27.645     5019
   27.660     4958
   27.675     4963
   27.690     4970
   27.705     5003
   27.720     5080
   27.735     5152
   27.750     5182
   27.765     5181
   27.780     5184
   27.795     5121
   27.810     5026
   27.825     5000
   27.840     4953
   27.855     4889
   27.870     4941
   27.885     4989
   27.900     4938
   27.915     4947
   27.930     4972
   27.945     5015
   27.960     5096
   27.975     5219
   27.990     5257
   28.005     5390
   28.020     5560
   28.035     5599
   28.050     5540
   28.065     5561
   28.080     5779
   28.095     6020
   28.110     6105
   28.125     6199
   28.140     6346
   28.155     6475
   28.170     6460
   28.185     6400
   28.200     6319
   28.215     6175
   28.230     5960
   28.245     5618
   28.260     5263
   28.275     4885
   28.290     4620
   28.305     4475
   28.320     4379
   28.335     4378
   28.350     4456
   28.365     4523
   28.380     4610
   28.395     4681
   28.410     4694
   28.425     4739
   28.440     4789
   28.455     4708
   28.470     4621
   28.485     4641
   28.500     4720
   28.515     4792
   28.530     4838
   28.545     4823
   28.560     4826
   28.575     4860
   28.590     4909
   28.605     4962
   28.620     4917
   28.635     4890
   28.650     4920
   28.665     4980
   28.680     5018
   28.695     5110
   28.710     5213
   28.725     5222
   28.740     5241
   28.755     5265
   28.770     5349
   28.785     5346
   28.800     5190
   28.815     5019
   28.830     4894
   28.845     4846
   28.860     4897
   28.875     5094
   28.890     5356
   28.905     5550
   28.920     5691
   28.935     5831
   28.950     5983
   28.965     6100
   28.980     6309
   28.995     6497
   29.010     6581
   29.025     6648
   29.040     6797
   29.055     6957
   29.070     7026
   29.085     7015
   29.100     6946
   29.115     6963
   29.130     7023
   29.145     7118
   29.160     7127
   29.175     6963
   29.190     6831
   29.205     6718
   29.220     6719
   29.235     6790
   29.250     6938
   29.265     7041
   29.280     7000
   29.295     6878
   29.310     6659
   29.325     6455
   29.340     6143
   29.355     5904
   29.370     5787
   29.385     5700
   29.400     5594
   29.415     5576
   29.430     5518
   29.445     5315
   29.460     5130
   29.475     4975
   29.490     4919
   29.505     5005
   29.520     5116
   29.535     5123
   29.550     5126
   29.565     5159
   29.580     5160
   29.595     5099
   29.610     4968
   29.625     4918
   29.640     4949
   29.655     4973
   29.670     4914
   29.685     4867
   29.700     4885
   29.715     4768
   29.730     4691
   29.745     4673
   29.760     4738
   29.775     4807
   29.790     4794
   29.805     4872
   29.820     4952
   29.835     5114
   29.850     5205
   29.865     5234
   29.880     5149
   29.895     4987
   29.910     4826
   29.925     4843
   29.940     5054
   29.955     5308
   29.970     5388
   29.985     5276
   30.000     5139
   30.015     5162
   30.030     5266
   30.045     5293
   30.060     5328
   30.075     5363
   30.090     5440
   30.105     5510
   30.120     5463
   30.135     5436
   30.150     5410
   30.165     5339
   30.180     5272
   30.195     5353
   30.210     5422
   30.225     5427
   30.240     5545
   30.255     5652
   30.270     5623
   30.285     5538
   30.300     5411
   30.315     5330
   30.330     5210
   30.345     5179
   30.360     5157
   30.375     5045
   30.390     4924
   30.405     4919
   30.420     4960
   30.435     5029
   30.450     5027
   30.465     4991
   30.480     4843
   30.495     4759
   30.510     4767
   30.525     4794
   30.540     4881
   30.555     4938
   30.570     4887
   30.585     4870
   30.600     4916
   30.615     4873
   30.630     4835
   30.645     4776
   30.660     4733
   30.675     4740
   30.690     4761
   30.705     4845
   30.720     4882
   30.735     4919
   30.750     4930
   30.765     4912
   30.780     4823
   30.795     4693
   30.810     4713
   30.825     4756
   30.840     4787
   30.855     4881
   30.870     5055
   30.885     5083
   30.900     5008
   30.915     4943
   30.930     4944
   30.945     4935
   30.960     4950
   30.975     4982
   30.990     5106
   31.005     5184
   31.020     5131
   31.035     5048
   31.050     4969
   31.065     4958
   31.080     4956
   31.095     4948
   31.110     5029
   31.125     5049
   31.140     5079
   31.155     5096
   31.170     5012
   31.185     4830
   31.200     4719
   31.215     4680
   31.230     4598
   31.245     4456
   31.260     4346
   31.275     4295
   31.290     4315
   31.305     4321
   31.320     4325
   31.335     4323
   31.350     4318
   31.365     4264
   31.380     4230
   31.395     4260
   31.410     4288
   31.425     4367
   31.440     4426
   31.455     4532
   31.470     4497
   31.485     4363
   31.500     4258
   31.515     4197
   31.530     4223
   31.545     4414
   31.560     4430
   31.575     4172
   31.590     3961
   31.605     3939
   31.620     4041
   31.635     4074
   31.650     4137
   31.665     4119
   31.680     4178
   31.695     4262
   31.710     4325
   31.725     4296
   31.740     4338
   31.755     4488
   31.770     4608
   31.785     4661
   31.800     4681
   31.815     4694
   31.830     4724
   31.845     4737
   31.860     4612
   31.875     4387
   31.890     4212
   31.905     4128
   31.920     4173
   31.935     4260
   31.950     4272
   31.965     4281
   31.980     4213
   31.995     4160
   32.010     4154
   32.025     4156
   32.040     4242
   32.055     4319
   32.070     4283
   32.085     4221
   32.100     4166
   32.115     4111
   32.130     4033
   32.145     3989
   32.160     4073
   32.175     4213
   32.190     4358
   32.205     4435
   32.220     4394
   32.235     4266
   32.250     4078
   32.265     4017
   32.280     4028
   32.295     4057
   32.310     4232
   32.325     4372
   32.340     4295
   32.355     4050
   32.370     3897
   32.385     3906
   32.400     3984
   32.415     4015
   32.430     4002
   32.445     3996
   32.460     4006
   32.475     4075
   32.490     4081
   32.505     3981
   32.520     3832
   32.535     3680
   32.550     3702
   32.565     3952
   32.580     4112
   32.595     4108
   32.610     4135
   32.625     4187
   32.640     4144
   32.655     3995
   32.670     3864
   32.685     3807
   32.700     3871
   32.715     3937
   32.730     3934
   32.745     3841
   32.760     3832
   32.775     3849
   32.790     3901
   32.805     3941
   32.820     3974
   32.835     3950
   32.850     3870
   32.865     3776
   32.880     3784
   32.895     3792
   32.910     3734
   32.925     3677
   32.940     3686
   32.955     3688
   32.970     3682
   32.985     3768
   33.000     3885
   33.015     3984
   33.030     3981
   33.045     3967
   33.060     4028
   33.075     4062
   33.090     4065
   33.105     3999
   33.120     3945
   33.135     3967
   33.150     4042
   33.165     4099
   33.180     4102
   33.195     4135
   33.210     4207
   33.225     4351
   33.240     4409
   33.255     4366
   33.270     4276
   33.285     4196
   33.300     4139
   33.315     4068
   33.330     3989
   33.345     3973
   33.360     3939
   33.375     3911
   33.390     3978
   33.405     4001
   33.420     4012
   33.435     4135
   33.450     4260
   33.465     4316
   33.480     4365
   33.495     4388
   33.510     4457
   33.525     4609
   33.540     4709
   33.555     4718
   33.570     4637
   33.585     4487
   33.600     4370
   33.615     4429
   33.630     4484
   33.645     4492
   33.660     4448
   33.675     4330
   33.690     4245
   33.705     4285
   33.720     4340
   33.735     4311
   33.750     4320
   33.765     4500
   33.780     4606
   33.795     4492
   33.810     4386
   33.825     4348
   33.840     4440
   33.855     4483
   33.870     4415
   33.885     4264
   33.900     4157
   33.915     4205
   33.930     4270
   33.945     4213
   33.960     4060
   33.975     4005
   33.990     4109
   34.005     4150
   34.020     4180
   34.035     4234
   34.050     4225
   34.065     4237
   34.080     4265
   34.095     4254
   34.110     4251
   34.125     4334
   34.140     4355
   34.155     4364
   34.170     4372
   34.185     4351
   34.200     4322
   34.215     4230
   34.230     4048
   34.245     3870
   34.260     3930
   34.275     4091
   34.290     4204
   34.305     4146
   34.320     4051
   34.335     4038
   34.350     4018
   34.365     3994
   34.380     4056
   34.395     4156
   34.410     4247
   34.425     4271
   34.440     4209
   34.455     4155
   34.470     4159
   34.485     4176
   34.500     4222
   34.515     4257
   34.530     4265
   34.545     4220
   34.560     4128
   34.575     4101
   34.590     4093
   34.605     4072
   34.620     4017
   34.635     3888
   34.650     3797
   34.665     3798
   34.680     3895
   34.695     3953
   34.710     3953
   34.725     3984
   34.740     3919
   34.755     3865
   34.770     3834
   34.785     3919
   34.800     3992
   34.815     3945
   34.830     3874
   34.845     3868
   34.860     3830
   34.875     3818
   34.890     3927
   34.905     4036
   34.920     4081
   34.935     4112
   34.950     4183
   34.965     4291
   34.980     4295
   34.995     4187
   35.010     4111
   35.025     4116
   35.040     4130
   35.055     4105
   35.070     4085
   35.085     4079
   35.100     4082
   35.115     4130
   35.130     4138
   35.145     4034
   35.160     3908
   35.175     3816
   35.190     3783
   35.205     3803
   35.220     3864
   35.235     3877
   35.250     3894
   35.265     3905
   35.280     3885
   35.295     3858
   35.310     3782
   35.325     3740
   35.340     3808
   35.355     3954
   35.370     4027
   35.385     3951
   35.400     3954
   35.415     4063
   35.430     4124
   35.445     4141
   35.460     4094
   35.475     3884
   35.490     3671
   35.505     3519
   35.520     3528
   35.535     3721
   35.550     3874
   35.565     3887
   35.580     3885
   35.595     3948
   35.610     3961
   35.625     3943
   35.640     3953
   35.655     3977
   35.670     3991
   35.685     4026
   35.700     4080
   35.715     4077
   35.730     4095
   35.745     4153
   35.760     4195
   35.775     4128
   35.790     4027
   35.805     4006
   35.820     4052
   35.835     4086
   35.850     4091
   35.865     4125
   35.880     4226
   35.895     4305
   35.910     4311
   35.925     4319
   35.940     4265
   35.955     4194
   35.970     4096
   35.985     3994
   36.000     4008
   36.015     4067
   36.030     4125
   36.045     4189
   36.060     4252
   36.075     4294
   36.090     4290
   36.105     4227
   36.120     4175
   36.135     4157
   36.150     4157
   36.165     4134
   36.180     4102
   36.195     4065
   36.210     4122
   36.225     4263
   36.240     4309
   36.255     4193
   36.270     4046
   36.285     3925
   36.300     3848
   36.315     3804
   36.330     3760
   36.345     3773
   36.360     3768
   36.375     3736
   36.390     3727
   36.405     3662
   36.420     3569
   36.435     3525
   36.450     3511
   36.465     3526
   36.480     3604
   36.495     3701
   36.510     3230
   36.525     3302
   36.540     3374
   36.555     3446
   36.570     3518
   36.585     3590
   36.600     3662
   36.615     3734
   36.630     3806
   36.645     3602
   36.660     3593
   36.675     3712
   36.690     3830
   36.705     3877
   36.720     3950
   36.735     4033
   36.750     4052
   36.765     4042
   36.780     3983
   36.795     3858
   36.810     3721
   36.825     3630
   36.840     3664
   36.855     3812
   36.870     3946
   36.885     3917
   36.900     3790
   36.915     3688
   36.930     3661
   36.945     3703
   36.960     3692
   36.975     3678
   36.990     3730
   37.005     3829
   37.020     3877
   37.035     3837
   37.050     3798
   37.065     3796
   37.080     3774
   37.095     3767
   37.110     3908
   37.125     4079
   37.140     4107
   37.155     4050
   37.170     3984
   37.185     3918
   37.200     3868
   37.215     3805
   37.230     3682
   37.245     3543
   37.260     3485
   37.275     3493
   37.290     3470
   37.305     3413
   37.320     3406
   37.335     3434
   37.350     3432
   37.365     3436
   37.380     3535
   37.395     3638
   37.410     3723
   37.425     3867
   37.440     4012
   37.455     4075
   37.470     4094
   37.485     4096
   37.500     4043
   37.515     3922
   37.530     3824
   37.545     3837
   37.560     3912
   37.575     3935
   37.590     3920
   37.605     3882
   37.620     3775
   37.635     3661
   37.650     3578
   37.665     3553
   37.680     3526
   37.695     3498
   37.710     3422
   37.725     3356
   37.740     3351
   37.755     3306
   37.770     3265
   37.785     3397
   37.800     3605
   37.815     3671
   37.830     3606
   37.845     3490
   37.860     3440
   37.875     3468
   37.890     3506
   37.905     3545
   37.920     3584
   37.935     3570
   37.950     3477
   37.965     3394
   37.980     3388
   37.995     3398
   38.010     3378
   38.025     3424
   38.040     3524
   38.055     3551
   38.070     3435
   38.085     3289
   38.100     3221
   38.115     3243
   38.130     3266
   38.145     3293
   38.160     3353
   38.175     3393
   38.190     3410
   38.205     3422
   38.220     3425
   38.235     3428
   38.250     3526
   38.265     3647
   38.280     3648
   38.295     3504
   38.310     3310
   38.325     3236
   38.340     3306
   38.355     3493
   38.370     3701
   38.385     3884
   38.400     3886
   38.415     3692
   38.430     3558
   38.445     3511
   38.460     3465
   38.475     3467
   38.490     3482
   38.505     3466
   38.520     3431
   38.535     3349
   38.550     3256
   38.565     3191
   38.580     3131
   38.595     3099
   38.610     3086
   38.625     3068
   38.640     3078
   38.655     3101
   38.670     3125
   38.685     3159
   38.700     3223
   38.715     3297
   38.730     3342
   38.745     3373
   38.760     3378
   38.775     3349
   38.790     3331
   38.805     3305
   38.820     3312
   38.835     3315
   38.850     3330
   38.865     3341
   38.880     3412
   38.895     3504
   38.910     3520
   38.925     3561
   38.940     3662
   38.955     3713
   38.970     3683
   38.985     3629
   39.000     3552
   39.015     3536
   39.030     3607
   39.045     3613
   39.060     3554
   39.075     3533
   39.090     3562
   39.105     3617
   39.120     3615
   39.135     3566
   39.150     3528
   39.165     3499
   39.180     3490
   39.195     3465
   39.210     3435
   39.225     3387
   39.240     3353
   39.255     3354
   39.270     3323
   39.285     3218
   39.300     3151
   39.315     3201
   39.330     3257
   39.345     3341
   39.360     3409
   39.375     3447
   39.390     3428
   39.405     3428
   39.420     3474
   39.435     3519
   39.450     3483
   39.465     3388
   39.480     3333
   39.495     3341
   39.510     3410
   39.525     3510
   39.540     3650
   39.555     3814
   39.570     3951
   39.585     3964
   39.600     3934
   39.615     3942
   39.630     3960
   39.645     3982
   39.660     3999
   39.675     4030
   39.690     4028
   39.705     3923
   39.720     3798
   39.735     3702
   39.750     3578
   39.765     3470
   39.780     3418
   39.795     3411
   39.810     3455
   39.825     3475
   39.840     3413
   39.855     3311
   39.870     3293
   39.885     3314
   39.900     3343
   39.915     3357
   39.930     3288
   39.945     3219
   39.960     3214
   39.975     3266
   39.990     3302
   40.005     3269
   40.020     3278
   40.035     3396
   40.050     3514
   40.065     3542
   40.080     3501
   40.095     3449
   40.110     3379
   40.125     3377
   40.140     3446
   40.155     3452
   40.170     3340
   40.185     3263
   40.200     3294
   40.215     3328
   40.230     3321
   40.245     3354
   40.260     3361
   40.275     3309
   40.290     3266
   40.305     3244
   40.320     3258
   40.335     3334
   40.350     3400
   40.365     3439
   40.380     3431
   40.395     3389
   40.410     3380
   40.425     3348
   40.440     3263
   40.455     3198
   40.470     3199
   40.485     3287
   40.500     3379
   40.515     3396
   40.530     3371
   40.545     3370
   40.560     3366
   40.575     3363
   40.590     3361
   40.605     3347
   40.620     3372
   40.635     3377
   40.650     3276
   40.665     3163
   40.680     3225
   40.695     3327
   40.710     3334
   40.725     3360
   40.740     3381
   40.755     3409
   40.770     3468
   40.785     3566
   40.800     3656
   40.815     3687
   40.830     3728
   40.845     3810
   40.860     3951
   40.875     4038
   40.890     4028
   40.905     3984
   40.920     3872
   40.935     3736
   40.950     3693
   40.965     3690
   40.980     3712
   40.995     3703
   41.010     3611
   41.025     3477
   41.040     3423
   41.055     3529
   41.070     3638
   41.085     3624
   41.100     3556
   41.115     3543
   41.130     3546
   41.145     3470
   41.160     3445
   41.175     3475
   41.190     3502
   41.205     3525
   41.220     3490
   41.235     3372
   41.250     3273
   41.265     3216
   41.280     3217
   41.295     3283
   41.310     3366
   41.325     3382
   41.340     3291
   41.355     3152
   41.370     3105
   41.385     3152
   41.400     3171
   41.415     3146
   41.430     3077
   41.445     3025
   41.460     3124
   41.475     3278
   41.490     3324
   41.505     3266
   41.520     3235
   41.535     3278
   41.550     3307
   41.565     3279
   41.580     3233
   41.595     3205
   41.610     3111
   41.625     3033
   41.640     3090
   41.655     3228
   41.670     3285
   41.685     3272
   41.700     3233
   41.715     3158
   41.730     3101
   41.745     3092
   41.760     3092
   41.775     3094
   41.790     3090
   41.805     3075
   41.820     3123
   41.835     3259
   41.850     3364
   41.865     3354
   41.880     3309
   41.895     3292
   41.910     3263
   41.925     3235
   41.940     3238
   41.955     3285
   41.970     3309
   41.985     3292
   42.000     3228
   42.015     3165
   42.030     3200
   42.045     3253
   42.060     3245
   42.075     3269
   42.090     3229
   42.105     3129
   42.120     3100
   42.135     3078
   42.150     3083
   42.165     3103
   42.180     3096
   42.195     3108
   42.210     3164
   42.225     3191
   42.240     3136
   42.255     3080
   42.270     3091
   42.285     3169
   42.300     3215
   42.315     3190
   42.330     3168
   42.345     3172
   42.360     3148
   42.375     3061
   42.390     2976
   42.405     2929
   42.420     2899
   42.435     2884
   42.450     2887
   42.465     2927
   42.480     2938
   42.495     2927
   42.510     2961
   42.525     3056
   42.540     3124
   42.555     3111
   42.570     3125
   42.585     3235
   42.600     3315
   42.615     3311
   42.630     3238
   42.645     3161
   42.660     3122
   42.675     3095
   42.690     3095
   42.705     3101
   42.720     3096
   42.735     3076
   42.750     3098
   42.765     3107
   42.780     3089
   42.795     3064
   42.810     3027
   42.825     3000
   42.840     3011
   42.855     3040
   42.870     3090
   42.885     3071
   42.900     3017
   42.915     3051
   42.930     3132
   42.945     3152
   42.960     3124
   42.975     3091
   42.990     3050
   43.005     2989
   43.020     2915
   43.035     2889
   43.050     2974
   43.065     3098
   43.080     3166
   43.095     3141
   43.110     3095
   43.125     3091
   43.140     3092
   43.155     3046
   43.170     2993
   43.185     3028
   43.200     3164
   43.215     3283
   43.230     3301
   43.245     3241
   43.260     3180
   43.275     3132
   43.290     3045
   43.305     2965
   43.320     2928
   43.335     2945
   43.350     3007
   43.365     3111
   43.380     3189
   43.395     3224
   43.410     3199
   43.425     3139
   43.440     3112
   43.455     3100
   43.470     3057
   43.485     3009
   43.500     2977
   43.515     3007
   43.530     3071
   43.545     3091
   43.560     3103
   43.575     3136
   43.590     3181
   43.605     3220
   43.620     3177
   43.635     3065
   43.650     2963
   43.665     2993
   43.680     3130
   43.695     3250
   43.710     3312
   43.725     3335
   43.740     3297
   43.755     3202
   43.770     3181
   43.785     3244
   43.800     3271
   43.815     3196
   43.830     3119
   43.845     3169
   43.860     3283
   43.875     3294
   43.890     3206
   43.905     3080
   43.920     2970
   43.935     2937
   43.950     2916
   43.965     2898
   43.980     2855
   43.995     2836
   44.010     2817
   44.025     2799
   44.040     2817
   44.055     2875
   44.070     2901
   44.085     2847
   44.100     2749
   44.115     2641
   44.130     2607
   44.145     2620
   44.160     2646
   44.175     2688
   44.190     2760
   44.205     2797
   44.220     2771
   44.235     2727
   44.250     2682
   44.265     2711
   44.280     2764
   44.295     2768
   44.310     2789
   44.325     2806
   44.340     2752
   44.355     2720
   44.370     2749
   44.385     2781
   44.400     2816
   44.415     2813
   44.430     2792
   44.445     2807
   44.460     2823
   44.475     2807
   44.490     2826
   44.505     2846
   44.520     2845
   44.535     2858
   44.550     2873
   44.565     2867
   44.580     2839
   44.595     2868
   44.610     2959
   44.625     3073
   44.640     3081
   44.655     2950
   44.670     2781
   44.685     2663
   44.700     2647
   44.715     2697
   44.730     2776
   44.745     2832
   44.760     2812
   44.775     2729
   44.790     2617
   44.805     2533
   44.820     2504
   44.835     2495
   44.850     2572
   44.865     2720
   44.880     2718
   44.895     2575
   44.910     2440
   44.925     2436
   44.940     2502
   44.955     2555
   44.970     2574
   44.985     2545
   45.000     2508
   45.015     2467
   45.030     2415
   45.045     2386
   45.060     2388
   45.075     2396
   45.090     2420
   45.105     2433
   45.120     2417
   45.135     2438
   45.150     2500
   45.165     2550
   45.180     2580
   45.195     2570
   45.210     2576
   45.225     2597
   45.240     2587
   45.255     2558
   45.270     2589
   45.285     2648
   45.300     2625
   45.315     2579
   45.330     2526
   45.345     2439
   45.360     2382
   45.375     2380
   45.390     2458
   45.405     2551
   45.420     2580
   45.435     2520
   45.450     2402
   45.465     2299
   45.480     2270
   45.495     2312
   45.510     2326
   45.525     2350
   45.540     2374
   45.555     2386
   45.570     2400
   45.585     2380
   45.600     2326
   45.615     2311
   45.630     2334
   45.645     2310
   45.660     2290
   45.675     2317
   45.690     2316
   45.705     2246
   45.720     2210
   45.735     2252
   45.750     2272
   45.765     2278
   45.780     2239
   45.795     2196
   45.810     2172
   45.825     2183
   45.840     2182
   45.855     2167
   45.870     2181
   45.885     2164
   45.900     2128
   45.915     2075
   45.930     1996
   45.945     1975
   45.960     2004
   45.975     2070
   45.990     2151
   46.005     2170
   46.020     2162
   46.035     2232
   46.050     2322
   46.065     2360
   46.080     2353
   46.095     2325
   46.110     2281
   46.125     2241
   46.140     2203
   46.155     2168
   46.170     2135
   46.185     2127
   46.200     2142
   46.215     2112
   46.230     2060
   46.245     2071
   46.260     2111
   46.275     2114
   46.290     2107
   46.305     2098
   46.320     2125
   46.335     2190
   46.350     2192
   46.365     2127
   46.380     2074
   46.395     2045
   46.410     2035
   46.425     2022
   46.440     2017
   46.455     2025
   46.470     2021
   46.485     1964
   46.500     1898
   46.515     1916
   46.530     2004
   46.545     2001
   46.560     1958
   46.575     1958
   46.590     1990
   46.605     2049
   46.620     2066
   46.635     2043
   46.650     2009
   46.665     1957
   46.680     1934
   46.695     1978
   46.710     2029
   46.725     2059
   46.740     2064
   46.755     2058
   46.770     2015
   46.785     1960
   46.800     1974
   46.815     1992
   46.830     2001
   46.845     1992
   46.860     1967
   46.875     1948
   46.890     1964
   46.905     2016
   46.920     2042
   46.935     2033
   46.950     2004
   46.965     1971
   46.980     1948
   46.995     1978
   47.010     2031
   47.025     2048
   47.040     2013
   47.055     1971
   47.070     1989
   47.085     2005
   47.100     2004
   47.115     2016
   47.130     2021
   47.145     2042
   47.160     2048
   47.175     2041
   47.190     2004
   47.205     1994
   47.220     2016
   47.235     2073
   47.250     2099
   47.265     2027
   47.280     1975
   47.295     2024
   47.310     2061
   47.325     2080
   47.340     2104
   47.355     2064
   47.370     2039
   47.385     2091
   47.400     2116
   47.415     2113
   47.430     2148
   47.445     2191
   47.460     2163
   47.475     2106
   47.490     2106
   47.505     2141
   47.520     2141
   47.535     2085
   47.550     2014
   47.565     1957
   47.580     1899
   47.595     1887
   47.610     1932
   47.625     1986
   47.640     2001
   47.655     1951
   47.670     1897
   47.685     1877
   47.700     1890
   47.715     1956
   47.730     2026
   47.745     2014
   47.760     1967
   47.775     1941
   47.790     1926
   47.805     1939
   47.820     1978
   47.835     2033
   47.850     2066
   47.865     2105
   47.880     2126
   47.895     2097
   47.910     2101
   47.925     2106
   47.940     2092
   47.955     2070
   47.970     2032
   47.985     1986
   48.000     1952
   48.015     1911
   48.030     1909
   48.045     2003
   48.060     2049
   48.075     2022
   48.090     1950
   48.105     1884
   48.120     1836
   48.135     1813
   48.150     1840
   48.165     1878
   48.180     1822
   48.195     1738
   48.210     1683
   48.225     1650
   48.240     1651
   48.255     1651
   48.270     1652
   48.285     1652
   48.300     1653
